"2025-05-08_03-07_10-0 - RawData"
"Wavelength nm.","Abs."
400.00,0.687
401.00,0.581
402.00,0.475
403.00,0.386
404.00,0.315
405.00,0.256
406.00,0.205
407.00,0.164
408.00,0.130
409.00,0.103
410.00,0.081
411.00,0.063
412.00,0.048
413.00,0.036
414.00,0.026
415.00,0.018
416.00,0.013
417.00,0.006
418.00,0.001
419.00,-0.002
420.00,-0.006
421.00,-0.008
422.00,-0.011
423.00,-0.013
424.00,-0.014
425.00,-0.016
426.00,-0.017
427.00,-0.018
428.00,-0.019
429.00,-0.019
430.00,-0.020
431.00,-0.021
432.00,-0.021
433.00,-0.022
434.00,-0.022
435.00,-0.022
436.00,-0.023
437.00,-0.023
438.00,-0.023
439.00,-0.023
440.00,-0.024
441.00,-0.024
442.00,-0.024
443.00,-0.024
444.00,-0.024
445.00,-0.024
446.00,-0.024
447.00,-0.025
448.00,-0.025
449.00,-0.025
450.00,-0.025
451.00,-0.025
452.00,-0.025
453.00,-0.025
454.00,-0.025
455.00,-0.025
456.00,-0.025
457.00,-0.025
458.00,-0.026
459.00,-0.026
460.00,-0.026
461.00,-0.026
462.00,-0.026
463.00,-0.026
464.00,-0.026
465.00,-0.026
466.00,-0.026
467.00,-0.026
468.00,-0.026
469.00,-0.026
470.00,-0.026
471.00,-0.026
472.00,-0.026
473.00,-0.026
474.00,-0.026
475.00,-0.026
476.00,-0.027
477.00,-0.027
478.00,-0.027
479.00,-0.027
480.00,-0.027
481.00,-0.027
482.00,-0.027
483.00,-0.027
484.00,-0.027
485.00,-0.027
486.00,-0.027
487.00,-0.027
488.00,-0.027
489.00,-0.027
490.00,-0.027
491.00,-0.027
492.00,-0.027
493.00,-0.027
494.00,-0.027
495.00,-0.027
496.00,-0.027
497.00,-0.027
498.00,-0.027
499.00,-0.027
500.00,-0.027
501.00,-0.027
502.00,-0.027
503.00,-0.027
504.00,-0.027
505.00,-0.027
506.00,-0.027
507.00,-0.027
508.00,-0.027
509.00,-0.027
510.00,-0.027
511.00,-0.027
512.00,-0.027
513.00,-0.027
514.00,-0.027
515.00,-0.027
516.00,-0.027
517.00,-0.027
518.00,-0.027
519.00,-0.027
520.00,-0.027
521.00,-0.027
522.00,-0.027
523.00,-0.027
524.00,-0.027
525.00,-0.027
526.00,-0.027
527.00,-0.027
528.00,-0.027
529.00,-0.027
530.00,-0.027
531.00,-0.027
532.00,-0.027
533.00,-0.027
534.00,-0.027
535.00,-0.027
536.00,-0.028
537.00,-0.027
538.00,-0.027
539.00,-0.027
540.00,-0.027
541.00,-0.027
542.00,-0.027
543.00,-0.027
544.00,-0.027
545.00,-0.026
546.00,-0.026
547.00,-0.026
548.00,-0.026
549.00,-0.026
550.00,-0.026
551.00,-0.026
552.00,-0.026
553.00,-0.026
554.00,-0.026
555.00,-0.026
556.00,-0.026
557.00,-0.026
558.00,-0.026
559.00,-0.026
560.00,-0.026
561.00,-0.026
562.00,-0.026
563.00,-0.026
564.00,-0.026
565.00,-0.026
566.00,-0.026
567.00,-0.026
568.00,-0.026
569.00,-0.026
570.00,-0.026
571.00,-0.026
572.00,-0.026
573.00,-0.026
574.00,-0.026
575.00,-0.026
576.00,-0.026
577.00,-0.026
578.00,-0.026
579.00,-0.026
580.00,-0.026
581.00,-0.026
582.00,-0.026
583.00,-0.027
584.00,-0.027
585.00,-0.026
586.00,-0.027
587.00,-0.027
588.00,-0.027
589.00,-0.027
590.00,-0.026
591.00,-0.027
592.00,-0.026
593.00,-0.027
594.00,-0.027
595.00,-0.026
596.00,-0.026
597.00,-0.026
598.00,-0.026
599.00,-0.026
600.00,-0.026
601.00,-0.026
602.00,-0.026
603.00,-0.026
604.00,-0.026
605.00,-0.026
606.00,-0.026
607.00,-0.026
608.00,-0.026
609.00,-0.026
610.00,-0.026
611.00,-0.026
612.00,-0.026
613.00,-0.026
614.00,-0.026
615.00,-0.027
616.00,-0.027
617.00,-0.027
618.00,-0.027
619.00,-0.027
620.00,-0.027
621.00,-0.027
622.00,-0.027
623.00,-0.027
624.00,-0.027
625.00,-0.027
626.00,-0.028
627.00,-0.028
628.00,-0.028
629.00,-0.028
630.00,-0.028
631.00,-0.028
632.00,-0.028
633.00,-0.028
634.00,-0.028
635.00,-0.028
636.00,-0.029
637.00,-0.029
638.00,-0.029
639.00,-0.029
640.00,-0.029
641.00,-0.029
642.00,-0.029
643.00,-0.029
644.00,-0.029
645.00,-0.029
646.00,-0.029
647.00,-0.029
648.00,-0.029
649.00,-0.029
650.00,-0.029
651.00,-0.029
652.00,-0.030
653.00,-0.030
654.00,-0.030
655.00,-0.030
656.00,-0.030
657.00,-0.030
658.00,-0.030
659.00,-0.030
660.00,-0.030
661.00,-0.030
662.00,-0.030
663.00,-0.030
664.00,-0.030
665.00,-0.030
666.00,-0.030
667.00,-0.030
668.00,-0.030
669.00,-0.030
670.00,-0.030
671.00,-0.030
672.00,-0.030
673.00,-0.030
674.00,-0.030
675.00,-0.030
676.00,-0.030
677.00,-0.030
678.00,-0.030
679.00,-0.030
680.00,-0.030
681.00,-0.030
682.00,-0.030
683.00,-0.030
684.00,-0.030
685.00,-0.030
686.00,-0.030
687.00,-0.030
688.00,-0.030
689.00,-0.030
690.00,-0.030
691.00,-0.030
692.00,-0.030
693.00,-0.030
694.00,-0.030
695.00,-0.030
696.00,-0.030
697.00,-0.030
698.00,-0.030
699.00,-0.030
700.00,-0.030
701.00,-0.030
702.00,-0.030
703.00,-0.030
704.00,-0.030
705.00,-0.030
706.00,-0.030
707.00,-0.030
708.00,-0.030
709.00,-0.030
710.00,-0.030
711.00,-0.030
712.00,-0.030
713.00,-0.030
714.00,-0.030
715.00,-0.030
716.00,-0.030
717.00,-0.030
718.00,-0.030
719.00,-0.030
720.00,-0.030
721.00,-0.030
722.00,-0.029
723.00,-0.030
724.00,-0.029
725.00,-0.029
726.00,-0.029
727.00,-0.029
728.00,-0.029
729.00,-0.029
730.00,-0.029
731.00,-0.029
732.00,-0.028
733.00,-0.028
734.00,-0.028
735.00,-0.028
736.00,-0.028
737.00,-0.027
738.00,-0.027
739.00,-0.027
740.00,-0.027
741.00,-0.027
742.00,-0.027
743.00,-0.027
744.00,-0.027
745.00,-0.027
746.00,-0.027
747.00,-0.027
748.00,-0.027
749.00,-0.027
750.00,-0.027
751.00,-0.027
752.00,-0.027
753.00,-0.027
754.00,-0.027
755.00,-0.027
756.00,-0.027
757.00,-0.028
758.00,-0.028
759.00,-0.028
760.00,-0.027
761.00,-0.028
762.00,-0.028
763.00,-0.028
764.00,-0.029
765.00,-0.029
766.00,-0.029
767.00,-0.029
768.00,-0.029
769.00,-0.029
770.00,-0.029
771.00,-0.029
772.00,-0.029
773.00,-0.029
774.00,-0.029
775.00,-0.029
776.00,-0.029
777.00,-0.029
778.00,-0.029
779.00,-0.029
780.00,-0.029
781.00,-0.029
782.00,-0.029
783.00,-0.029
784.00,-0.029
785.00,-0.029
786.00,-0.029
787.00,-0.029
788.00,-0.029
789.00,-0.029
790.00,-0.029
791.00,-0.029
792.00,-0.029
793.00,-0.029
794.00,-0.029
795.00,-0.029
796.00,-0.029
797.00,-0.029
798.00,-0.029
799.00,-0.029
800.00,-0.029
801.00,-0.029
802.00,-0.029
803.00,-0.029
804.00,-0.029
805.00,-0.029
806.00,-0.029
807.00,-0.029
808.00,-0.029
809.00,-0.029
810.00,-0.029
811.00,-0.029
812.00,-0.029
813.00,-0.028
814.00,-0.028
815.00,-0.029
816.00,-0.029
817.00,-0.028
818.00,-0.028
819.00,-0.028
820.00,-0.028
821.00,-0.028
822.00,-0.028
823.00,-0.028
824.00,-0.028
825.00,-0.028
826.00,-0.028
827.00,-0.028
828.00,-0.028
829.00,-0.028
830.00,-0.028
831.00,-0.028
832.00,-0.028
833.00,-0.028
834.00,-0.028
835.00,-0.028
836.00,-0.028
837.00,-0.028
838.00,-0.028
839.00,-0.028
840.00,-0.028
841.00,-0.028
842.00,-0.028
843.00,-0.029
844.00,-0.029
845.00,-0.029
846.00,-0.029
847.00,-0.029
848.00,-0.028
849.00,-0.029
850.00,-0.029
851.00,-0.029
852.00,-0.029
853.00,-0.028
854.00,-0.028
855.00,-0.029
856.00,-0.028
857.00,-0.028
858.00,-0.028
859.00,-0.028
860.00,-0.028
861.00,-0.028
862.00,-0.028
863.00,-0.028
864.00,-0.028
865.00,-0.027
866.00,-0.027
867.00,-0.027
868.00,-0.027
869.00,-0.027
870.00,-0.026
871.00,-0.026
872.00,-0.026
873.00,-0.025
874.00,-0.025
875.00,-0.025
876.00,-0.024
877.00,-0.024
878.00,-0.023
879.00,-0.023
880.00,-0.023
881.00,-0.022
882.00,-0.022
883.00,-0.022
884.00,-0.021
885.00,-0.021
886.00,-0.020
887.00,-0.019
888.00,-0.019
889.00,-0.018
890.00,-0.017
891.00,-0.016
892.00,-0.015
893.00,-0.014
894.00,-0.012
895.00,-0.011
896.00,-0.009
897.00,-0.007
898.00,-0.006
899.00,-0.004
900.00,-0.002
901.00,-0.000
902.00,0.001
903.00,0.003
904.00,0.005
905.00,0.007
906.00,0.008
907.00,0.010
908.00,0.011
909.00,0.012
910.00,0.012
911.00,0.012
912.00,0.012
913.00,0.012
914.00,0.011
915.00,0.011
916.00,0.010
917.00,0.009
918.00,0.009
919.00,0.008
920.00,0.007
921.00,0.007
922.00,0.006
923.00,0.005
924.00,0.004
925.00,0.003
926.00,0.001
927.00,0.000
928.00,-0.001
929.00,-0.002
930.00,-0.003
931.00,-0.004
932.00,-0.005
933.00,-0.006
934.00,-0.007
935.00,-0.008
936.00,-0.009
937.00,-0.010
938.00,-0.011
939.00,-0.012
940.00,-0.012
941.00,-0.013
942.00,-0.014
943.00,-0.014
944.00,-0.015
945.00,-0.016
946.00,-0.016
947.00,-0.017
948.00,-0.017
949.00,-0.018
950.00,-0.018
951.00,-0.018
952.00,-0.019
953.00,-0.019
954.00,-0.020
955.00,-0.020
956.00,-0.021
957.00,-0.021
958.00,-0.021
959.00,-0.022
960.00,-0.022
961.00,-0.022
962.00,-0.023
963.00,-0.023
964.00,-0.023
965.00,-0.024
966.00,-0.024
967.00,-0.024
968.00,-0.024
969.00,-0.025
970.00,-0.025
971.00,-0.025
972.00,-0.025
973.00,-0.025
974.00,-0.025
975.00,-0.025
976.00,-0.025
977.00,-0.025
978.00,-0.025
979.00,-0.025
980.00,-0.025
981.00,-0.025
982.00,-0.024
983.00,-0.024
984.00,-0.024
985.00,-0.023
986.00,-0.023
987.00,-0.022
988.00,-0.022
989.00,-0.022
990.00,-0.021
991.00,-0.021
992.00,-0.020
993.00,-0.020
994.00,-0.019
995.00,-0.018
996.00,-0.018
997.00,-0.017
998.00,-0.016
999.00,-0.016
1000.00,-0.015
1001.00,-0.013
1002.00,-0.012
1003.00,-0.010
1004.00,-0.009
1005.00,-0.007
1006.00,-0.006
1007.00,-0.005
1008.00,-0.005
1009.00,-0.004
1010.00,-0.004
1011.00,-0.003
1012.00,-0.003
1013.00,-0.002
1014.00,-0.002
1015.00,-0.002
1016.00,-0.001
1017.00,-0.001
1018.00,-0.001
1019.00,-0.001
1020.00,-0.001
1021.00,-0.001
1022.00,-0.001
1023.00,-0.001
1024.00,-0.001
1025.00,-0.001
1026.00,-0.001
1027.00,-0.001
1028.00,-0.001
1029.00,-0.001
1030.00,-0.002
1031.00,-0.002
1032.00,-0.002
1033.00,-0.002
1034.00,-0.002
1035.00,-0.002
1036.00,-0.002
1037.00,-0.002
1038.00,-0.003
1039.00,-0.003
1040.00,-0.003
1041.00,-0.003
1042.00,-0.003
1043.00,-0.004
1044.00,-0.004
1045.00,-0.004
1046.00,-0.004
1047.00,-0.005
1048.00,-0.005
1049.00,-0.005
1050.00,-0.006
1051.00,-0.006
1052.00,-0.007
1053.00,-0.007
1054.00,-0.008
1055.00,-0.008
1056.00,-0.008
1057.00,-0.009
1058.00,-0.009
1059.00,-0.009
1060.00,-0.010
1061.00,-0.010
1062.00,-0.010
1063.00,-0.011
1064.00,-0.011
1065.00,-0.011
1066.00,-0.011
1067.00,-0.011
1068.00,-0.012
1069.00,-0.012
1070.00,-0.013
1071.00,-0.013
1072.00,-0.014
1073.00,-0.014
1074.00,-0.015
1075.00,-0.015
1076.00,-0.015
1077.00,-0.015
1078.00,-0.016
1079.00,-0.016
1080.00,-0.017
1081.00,-0.017
1082.00,-0.017
1083.00,-0.017
1084.00,-0.018
1085.00,-0.018
1086.00,-0.018
1087.00,-0.019
1088.00,-0.019
1089.00,-0.019
1090.00,-0.019
1091.00,-0.019
1092.00,-0.019
1093.00,-0.019
1094.00,-0.020
1095.00,-0.019
1096.00,-0.020
1097.00,-0.020
1098.00,-0.019
1099.00,-0.020
1100.00,-0.020
