"2025-04-17_02-28_10-1 - RawData"
"Wavelength nm.","Abs."
400.00,0.685
401.00,0.581
402.00,0.479
403.00,0.395
404.00,0.326
405.00,0.268
406.00,0.218
407.00,0.177
408.00,0.143
409.00,0.116
410.00,0.094
411.00,0.076
412.00,0.061
413.00,0.049
414.00,0.039
415.00,0.031
416.00,0.026
417.00,0.018
418.00,0.013
419.00,0.009
420.00,0.006
421.00,0.003
422.00,-0.000
423.00,-0.002
424.00,-0.004
425.00,-0.006
426.00,-0.007
427.00,-0.008
428.00,-0.009
429.00,-0.010
430.00,-0.011
431.00,-0.012
432.00,-0.013
433.00,-0.014
434.00,-0.014
435.00,-0.015
436.00,-0.015
437.00,-0.015
438.00,-0.016
439.00,-0.016
440.00,-0.017
441.00,-0.017
442.00,-0.017
443.00,-0.017
444.00,-0.018
445.00,-0.018
446.00,-0.018
447.00,-0.018
448.00,-0.019
449.00,-0.019
450.00,-0.019
451.00,-0.019
452.00,-0.019
453.00,-0.019
454.00,-0.020
455.00,-0.020
456.00,-0.020
457.00,-0.020
458.00,-0.020
459.00,-0.020
460.00,-0.020
461.00,-0.021
462.00,-0.021
463.00,-0.021
464.00,-0.021
465.00,-0.021
466.00,-0.021
467.00,-0.021
468.00,-0.021
469.00,-0.021
470.00,-0.022
471.00,-0.022
472.00,-0.022
473.00,-0.022
474.00,-0.022
475.00,-0.022
476.00,-0.022
477.00,-0.022
478.00,-0.022
479.00,-0.022
480.00,-0.022
481.00,-0.022
482.00,-0.023
483.00,-0.023
484.00,-0.023
485.00,-0.023
486.00,-0.023
487.00,-0.023
488.00,-0.023
489.00,-0.023
490.00,-0.023
491.00,-0.023
492.00,-0.023
493.00,-0.023
494.00,-0.023
495.00,-0.023
496.00,-0.023
497.00,-0.023
498.00,-0.023
499.00,-0.023
500.00,-0.024
501.00,-0.024
502.00,-0.024
503.00,-0.024
504.00,-0.024
505.00,-0.024
506.00,-0.024
507.00,-0.024
508.00,-0.024
509.00,-0.024
510.00,-0.024
511.00,-0.024
512.00,-0.024
513.00,-0.024
514.00,-0.024
515.00,-0.024
516.00,-0.024
517.00,-0.024
518.00,-0.024
519.00,-0.024
520.00,-0.024
521.00,-0.024
522.00,-0.024
523.00,-0.024
524.00,-0.024
525.00,-0.024
526.00,-0.024
527.00,-0.024
528.00,-0.024
529.00,-0.024
530.00,-0.024
531.00,-0.024
532.00,-0.024
533.00,-0.024
534.00,-0.024
535.00,-0.024
536.00,-0.025
537.00,-0.024
538.00,-0.024
539.00,-0.024
540.00,-0.024
541.00,-0.024
542.00,-0.024
543.00,-0.024
544.00,-0.024
545.00,-0.024
546.00,-0.024
547.00,-0.024
548.00,-0.024
549.00,-0.024
550.00,-0.024
551.00,-0.024
552.00,-0.024
553.00,-0.024
554.00,-0.024
555.00,-0.024
556.00,-0.024
557.00,-0.024
558.00,-0.024
559.00,-0.024
560.00,-0.024
561.00,-0.024
562.00,-0.024
563.00,-0.024
564.00,-0.024
565.00,-0.024
566.00,-0.024
567.00,-0.024
568.00,-0.024
569.00,-0.024
570.00,-0.024
571.00,-0.024
572.00,-0.024
573.00,-0.024
574.00,-0.024
575.00,-0.024
576.00,-0.024
577.00,-0.024
578.00,-0.024
579.00,-0.024
580.00,-0.024
581.00,-0.025
582.00,-0.025
583.00,-0.025
584.00,-0.025
585.00,-0.025
586.00,-0.025
587.00,-0.025
588.00,-0.025
589.00,-0.025
590.00,-0.025
591.00,-0.025
592.00,-0.025
593.00,-0.025
594.00,-0.025
595.00,-0.025
596.00,-0.025
597.00,-0.025
598.00,-0.025
599.00,-0.025
600.00,-0.025
601.00,-0.025
602.00,-0.025
603.00,-0.025
604.00,-0.025
605.00,-0.025
606.00,-0.025
607.00,-0.025
608.00,-0.025
609.00,-0.025
610.00,-0.025
611.00,-0.025
612.00,-0.025
613.00,-0.025
614.00,-0.025
615.00,-0.025
616.00,-0.025
617.00,-0.025
618.00,-0.025
619.00,-0.025
620.00,-0.025
621.00,-0.026
622.00,-0.026
623.00,-0.026
624.00,-0.026
625.00,-0.026
626.00,-0.026
627.00,-0.026
628.00,-0.026
629.00,-0.026
630.00,-0.026
631.00,-0.027
632.00,-0.027
633.00,-0.027
634.00,-0.027
635.00,-0.027
636.00,-0.027
637.00,-0.027
638.00,-0.027
639.00,-0.027
640.00,-0.028
641.00,-0.028
642.00,-0.028
643.00,-0.028
644.00,-0.028
645.00,-0.028
646.00,-0.028
647.00,-0.028
648.00,-0.028
649.00,-0.028
650.00,-0.028
651.00,-0.028
652.00,-0.028
653.00,-0.028
654.00,-0.028
655.00,-0.028
656.00,-0.028
657.00,-0.028
658.00,-0.028
659.00,-0.029
660.00,-0.028
661.00,-0.028
662.00,-0.028
663.00,-0.029
664.00,-0.028
665.00,-0.028
666.00,-0.028
667.00,-0.028
668.00,-0.028
669.00,-0.028
670.00,-0.028
671.00,-0.028
672.00,-0.028
673.00,-0.028
674.00,-0.028
675.00,-0.028
676.00,-0.029
677.00,-0.029
678.00,-0.029
679.00,-0.028
680.00,-0.028
681.00,-0.029
682.00,-0.029
683.00,-0.029
684.00,-0.029
685.00,-0.029
686.00,-0.029
687.00,-0.029
688.00,-0.029
689.00,-0.029
690.00,-0.029
691.00,-0.029
692.00,-0.029
693.00,-0.029
694.00,-0.029
695.00,-0.029
696.00,-0.029
697.00,-0.029
698.00,-0.029
699.00,-0.029
700.00,-0.029
701.00,-0.029
702.00,-0.029
703.00,-0.029
704.00,-0.029
705.00,-0.029
706.00,-0.029
707.00,-0.029
708.00,-0.029
709.00,-0.029
710.00,-0.029
711.00,-0.029
712.00,-0.029
713.00,-0.029
714.00,-0.029
715.00,-0.029
716.00,-0.029
717.00,-0.029
718.00,-0.029
719.00,-0.029
720.00,-0.029
721.00,-0.029
722.00,-0.028
723.00,-0.028
724.00,-0.028
725.00,-0.028
726.00,-0.028
727.00,-0.028
728.00,-0.028
729.00,-0.028
730.00,-0.028
731.00,-0.028
732.00,-0.027
733.00,-0.027
734.00,-0.027
735.00,-0.027
736.00,-0.027
737.00,-0.027
738.00,-0.026
739.00,-0.026
740.00,-0.026
741.00,-0.026
742.00,-0.026
743.00,-0.026
744.00,-0.026
745.00,-0.026
746.00,-0.026
747.00,-0.026
748.00,-0.026
749.00,-0.026
750.00,-0.026
751.00,-0.026
752.00,-0.026
753.00,-0.026
754.00,-0.026
755.00,-0.027
756.00,-0.027
757.00,-0.027
758.00,-0.027
759.00,-0.027
760.00,-0.026
761.00,-0.027
762.00,-0.027
763.00,-0.027
764.00,-0.027
765.00,-0.028
766.00,-0.028
767.00,-0.028
768.00,-0.028
769.00,-0.028
770.00,-0.028
771.00,-0.028
772.00,-0.028
773.00,-0.028
774.00,-0.028
775.00,-0.028
776.00,-0.028
777.00,-0.028
778.00,-0.028
779.00,-0.028
780.00,-0.028
781.00,-0.028
782.00,-0.028
783.00,-0.028
784.00,-0.028
785.00,-0.028
786.00,-0.028
787.00,-0.028
788.00,-0.028
789.00,-0.028
790.00,-0.028
791.00,-0.028
792.00,-0.028
793.00,-0.028
794.00,-0.028
795.00,-0.028
796.00,-0.028
797.00,-0.028
798.00,-0.028
799.00,-0.028
800.00,-0.028
801.00,-0.028
802.00,-0.028
803.00,-0.028
804.00,-0.028
805.00,-0.028
806.00,-0.028
807.00,-0.028
808.00,-0.028
809.00,-0.028
810.00,-0.028
811.00,-0.028
812.00,-0.028
813.00,-0.028
814.00,-0.028
815.00,-0.028
816.00,-0.028
817.00,-0.028
818.00,-0.028
819.00,-0.028
820.00,-0.028
821.00,-0.028
822.00,-0.028
823.00,-0.028
824.00,-0.028
825.00,-0.028
826.00,-0.028
827.00,-0.028
828.00,-0.028
829.00,-0.028
830.00,-0.028
831.00,-0.028
832.00,-0.028
833.00,-0.028
834.00,-0.028
835.00,-0.028
836.00,-0.028
837.00,-0.028
838.00,-0.028
839.00,-0.028
840.00,-0.028
841.00,-0.028
842.00,-0.028
843.00,-0.028
844.00,-0.028
845.00,-0.028
846.00,-0.028
847.00,-0.028
848.00,-0.028
849.00,-0.028
850.00,-0.028
851.00,-0.028
852.00,-0.028
853.00,-0.028
854.00,-0.028
855.00,-0.028
856.00,-0.027
857.00,-0.027
858.00,-0.027
859.00,-0.027
860.00,-0.027
861.00,-0.027
862.00,-0.027
863.00,-0.026
864.00,-0.026
865.00,-0.026
866.00,-0.026
867.00,-0.025
868.00,-0.025
869.00,-0.025
870.00,-0.025
871.00,-0.024
872.00,-0.024
873.00,-0.024
874.00,-0.024
875.00,-0.023
876.00,-0.023
877.00,-0.023
878.00,-0.023
879.00,-0.022
880.00,-0.022
881.00,-0.022
882.00,-0.021
883.00,-0.021
884.00,-0.020
885.00,-0.020
886.00,-0.019
887.00,-0.019
888.00,-0.018
889.00,-0.017
890.00,-0.016
891.00,-0.015
892.00,-0.014
893.00,-0.013
894.00,-0.012
895.00,-0.010
896.00,-0.009
897.00,-0.007
898.00,-0.005
899.00,-0.004
900.00,-0.002
901.00,-0.000
902.00,0.001
903.00,0.003
904.00,0.005
905.00,0.007
906.00,0.008
907.00,0.010
908.00,0.011
909.00,0.011
910.00,0.012
911.00,0.012
912.00,0.012
913.00,0.011
914.00,0.011
915.00,0.010
916.00,0.009
917.00,0.008
918.00,0.008
919.00,0.007
920.00,0.007
921.00,0.006
922.00,0.005
923.00,0.004
924.00,0.003
925.00,0.002
926.00,0.001
927.00,-0.000
928.00,-0.001
929.00,-0.002
930.00,-0.003
931.00,-0.005
932.00,-0.006
933.00,-0.007
934.00,-0.008
935.00,-0.008
936.00,-0.009
937.00,-0.010
938.00,-0.011
939.00,-0.012
940.00,-0.012
941.00,-0.013
942.00,-0.014
943.00,-0.014
944.00,-0.015
945.00,-0.016
946.00,-0.016
947.00,-0.017
948.00,-0.017
949.00,-0.018
950.00,-0.018
951.00,-0.018
952.00,-0.019
953.00,-0.019
954.00,-0.020
955.00,-0.020
956.00,-0.020
957.00,-0.021
958.00,-0.021
959.00,-0.022
960.00,-0.022
961.00,-0.023
962.00,-0.023
963.00,-0.023
964.00,-0.023
965.00,-0.024
966.00,-0.024
967.00,-0.024
968.00,-0.024
969.00,-0.025
970.00,-0.025
971.00,-0.025
972.00,-0.025
973.00,-0.025
974.00,-0.025
975.00,-0.025
976.00,-0.025
977.00,-0.025
978.00,-0.025
979.00,-0.024
980.00,-0.024
981.00,-0.024
982.00,-0.024
983.00,-0.024
984.00,-0.023
985.00,-0.023
986.00,-0.023
987.00,-0.022
988.00,-0.022
989.00,-0.021
990.00,-0.021
991.00,-0.020
992.00,-0.020
993.00,-0.019
994.00,-0.019
995.00,-0.018
996.00,-0.017
997.00,-0.017
998.00,-0.016
999.00,-0.015
1000.00,-0.014
1001.00,-0.013
1002.00,-0.012
1003.00,-0.010
1004.00,-0.008
1005.00,-0.007
1006.00,-0.006
1007.00,-0.005
1008.00,-0.004
1009.00,-0.004
1010.00,-0.004
1011.00,-0.003
1012.00,-0.003
1013.00,-0.002
1014.00,-0.002
1015.00,-0.002
1016.00,-0.001
1017.00,-0.001
1018.00,-0.001
1019.00,-0.001
1020.00,-0.001
1021.00,-0.001
1022.00,-0.001
1023.00,-0.001
1024.00,-0.001
1025.00,-0.001
1026.00,-0.001
1027.00,-0.001
1028.00,-0.001
1029.00,-0.002
1030.00,-0.002
1031.00,-0.002
1032.00,-0.002
1033.00,-0.002
1034.00,-0.002
1035.00,-0.002
1036.00,-0.002
1037.00,-0.002
1038.00,-0.003
1039.00,-0.003
1040.00,-0.003
1041.00,-0.003
1042.00,-0.003
1043.00,-0.004
1044.00,-0.004
1045.00,-0.004
1046.00,-0.004
1047.00,-0.005
1048.00,-0.005
1049.00,-0.005
1050.00,-0.006
1051.00,-0.006
1052.00,-0.007
1053.00,-0.007
1054.00,-0.008
1055.00,-0.008
1056.00,-0.008
1057.00,-0.009
1058.00,-0.009
1059.00,-0.009
1060.00,-0.010
1061.00,-0.010
1062.00,-0.010
1063.00,-0.010
1064.00,-0.011
1065.00,-0.011
1066.00,-0.011
1067.00,-0.011
1068.00,-0.012
1069.00,-0.012
1070.00,-0.012
1071.00,-0.013
1072.00,-0.013
1073.00,-0.014
1074.00,-0.014
1075.00,-0.015
1076.00,-0.015
1077.00,-0.015
1078.00,-0.016
1079.00,-0.016
1080.00,-0.016
1081.00,-0.017
1082.00,-0.017
1083.00,-0.017
1084.00,-0.017
1085.00,-0.018
1086.00,-0.018
1087.00,-0.018
1088.00,-0.018
1089.00,-0.018
1090.00,-0.018
1091.00,-0.018
1092.00,-0.018
1093.00,-0.019
1094.00,-0.019
1095.00,-0.019
1096.00,-0.019
1097.00,-0.019
1098.00,-0.019
1099.00,-0.019
1100.00,-0.019
