"2025-04-29_03-14_10-0 - RawData"
"Wavelength nm.","Abs."
400.00,0.686
401.00,0.579
402.00,0.474
403.00,0.386
404.00,0.315
405.00,0.255
406.00,0.205
407.00,0.164
408.00,0.129
409.00,0.103
410.00,0.081
411.00,0.063
412.00,0.048
413.00,0.036
414.00,0.026
415.00,0.018
416.00,0.013
417.00,0.005
418.00,0.001
419.00,-0.003
420.00,-0.006
421.00,-0.009
422.00,-0.012
423.00,-0.013
424.00,-0.015
425.00,-0.016
426.00,-0.018
427.00,-0.019
428.00,-0.019
429.00,-0.020
430.00,-0.021
431.00,-0.021
432.00,-0.022
433.00,-0.022
434.00,-0.023
435.00,-0.023
436.00,-0.023
437.00,-0.024
438.00,-0.024
439.00,-0.024
440.00,-0.024
441.00,-0.024
442.00,-0.025
443.00,-0.025
444.00,-0.025
445.00,-0.025
446.00,-0.025
447.00,-0.025
448.00,-0.025
449.00,-0.025
450.00,-0.025
451.00,-0.026
452.00,-0.026
453.00,-0.026
454.00,-0.026
455.00,-0.026
456.00,-0.026
457.00,-0.026
458.00,-0.026
459.00,-0.026
460.00,-0.026
461.00,-0.026
462.00,-0.026
463.00,-0.026
464.00,-0.026
465.00,-0.027
466.00,-0.027
467.00,-0.027
468.00,-0.027
469.00,-0.027
470.00,-0.027
471.00,-0.027
472.00,-0.027
473.00,-0.027
474.00,-0.027
475.00,-0.027
476.00,-0.027
477.00,-0.027
478.00,-0.027
479.00,-0.027
480.00,-0.027
481.00,-0.027
482.00,-0.027
483.00,-0.027
484.00,-0.027
485.00,-0.027
486.00,-0.027
487.00,-0.027
488.00,-0.027
489.00,-0.027
490.00,-0.027
491.00,-0.027
492.00,-0.027
493.00,-0.027
494.00,-0.027
495.00,-0.027
496.00,-0.027
497.00,-0.027
498.00,-0.027
499.00,-0.027
500.00,-0.027
501.00,-0.027
502.00,-0.027
503.00,-0.027
504.00,-0.027
505.00,-0.027
506.00,-0.027
507.00,-0.027
508.00,-0.027
509.00,-0.027
510.00,-0.027
511.00,-0.027
512.00,-0.027
513.00,-0.027
514.00,-0.027
515.00,-0.027
516.00,-0.027
517.00,-0.027
518.00,-0.027
519.00,-0.027
520.00,-0.027
521.00,-0.027
522.00,-0.027
523.00,-0.027
524.00,-0.027
525.00,-0.027
526.00,-0.027
527.00,-0.027
528.00,-0.027
529.00,-0.027
530.00,-0.027
531.00,-0.027
532.00,-0.027
533.00,-0.027
534.00,-0.027
535.00,-0.027
536.00,-0.028
537.00,-0.027
538.00,-0.026
539.00,-0.026
540.00,-0.026
541.00,-0.026
542.00,-0.026
543.00,-0.026
544.00,-0.026
545.00,-0.026
546.00,-0.026
547.00,-0.026
548.00,-0.026
549.00,-0.026
550.00,-0.026
551.00,-0.026
552.00,-0.026
553.00,-0.026
554.00,-0.026
555.00,-0.026
556.00,-0.026
557.00,-0.026
558.00,-0.026
559.00,-0.026
560.00,-0.026
561.00,-0.025
562.00,-0.025
563.00,-0.025
564.00,-0.025
565.00,-0.025
566.00,-0.025
567.00,-0.025
568.00,-0.025
569.00,-0.025
570.00,-0.025
571.00,-0.026
572.00,-0.026
573.00,-0.026
574.00,-0.026
575.00,-0.026
576.00,-0.026
577.00,-0.026
578.00,-0.026
579.00,-0.026
580.00,-0.026
581.00,-0.026
582.00,-0.026
583.00,-0.026
584.00,-0.026
585.00,-0.026
586.00,-0.026
587.00,-0.026
588.00,-0.026
589.00,-0.026
590.00,-0.026
591.00,-0.026
592.00,-0.026
593.00,-0.026
594.00,-0.026
595.00,-0.026
596.00,-0.026
597.00,-0.026
598.00,-0.026
599.00,-0.026
600.00,-0.026
601.00,-0.026
602.00,-0.026
603.00,-0.026
604.00,-0.026
605.00,-0.026
606.00,-0.026
607.00,-0.026
608.00,-0.026
609.00,-0.026
610.00,-0.026
611.00,-0.026
612.00,-0.026
613.00,-0.026
614.00,-0.026
615.00,-0.026
616.00,-0.026
617.00,-0.026
618.00,-0.026
619.00,-0.026
620.00,-0.026
621.00,-0.027
622.00,-0.027
623.00,-0.027
624.00,-0.027
625.00,-0.027
626.00,-0.027
627.00,-0.027
628.00,-0.027
629.00,-0.027
630.00,-0.027
631.00,-0.027
632.00,-0.027
633.00,-0.028
634.00,-0.028
635.00,-0.028
636.00,-0.028
637.00,-0.028
638.00,-0.028
639.00,-0.028
640.00,-0.028
641.00,-0.028
642.00,-0.028
643.00,-0.028
644.00,-0.028
645.00,-0.029
646.00,-0.029
647.00,-0.029
648.00,-0.029
649.00,-0.029
650.00,-0.029
651.00,-0.029
652.00,-0.029
653.00,-0.029
654.00,-0.029
655.00,-0.029
656.00,-0.029
657.00,-0.029
658.00,-0.029
659.00,-0.029
660.00,-0.029
661.00,-0.029
662.00,-0.029
663.00,-0.029
664.00,-0.029
665.00,-0.029
666.00,-0.029
667.00,-0.029
668.00,-0.029
669.00,-0.029
670.00,-0.029
671.00,-0.029
672.00,-0.029
673.00,-0.029
674.00,-0.029
675.00,-0.029
676.00,-0.029
677.00,-0.029
678.00,-0.029
679.00,-0.029
680.00,-0.029
681.00,-0.029
682.00,-0.029
683.00,-0.029
684.00,-0.029
685.00,-0.029
686.00,-0.029
687.00,-0.029
688.00,-0.029
689.00,-0.029
690.00,-0.029
691.00,-0.029
692.00,-0.029
693.00,-0.029
694.00,-0.029
695.00,-0.029
696.00,-0.029
697.00,-0.029
698.00,-0.029
699.00,-0.029
700.00,-0.029
701.00,-0.029
702.00,-0.029
703.00,-0.029
704.00,-0.029
705.00,-0.029
706.00,-0.029
707.00,-0.029
708.00,-0.029
709.00,-0.029
710.00,-0.029
711.00,-0.029
712.00,-0.029
713.00,-0.029
714.00,-0.029
715.00,-0.029
716.00,-0.029
717.00,-0.029
718.00,-0.029
719.00,-0.029
720.00,-0.029
721.00,-0.029
722.00,-0.029
723.00,-0.029
724.00,-0.029
725.00,-0.029
726.00,-0.028
727.00,-0.028
728.00,-0.028
729.00,-0.028
730.00,-0.028
731.00,-0.028
732.00,-0.028
733.00,-0.027
734.00,-0.027
735.00,-0.027
736.00,-0.027
737.00,-0.027
738.00,-0.027
739.00,-0.026
740.00,-0.026
741.00,-0.026
742.00,-0.026
743.00,-0.026
744.00,-0.026
745.00,-0.026
746.00,-0.026
747.00,-0.026
748.00,-0.026
749.00,-0.026
750.00,-0.026
751.00,-0.026
752.00,-0.026
753.00,-0.026
754.00,-0.026
755.00,-0.027
756.00,-0.027
757.00,-0.027
758.00,-0.027
759.00,-0.027
760.00,-0.026
761.00,-0.027
762.00,-0.027
763.00,-0.028
764.00,-0.028
765.00,-0.028
766.00,-0.028
767.00,-0.028
768.00,-0.028
769.00,-0.028
770.00,-0.028
771.00,-0.028
772.00,-0.028
773.00,-0.028
774.00,-0.028
775.00,-0.028
776.00,-0.028
777.00,-0.028
778.00,-0.028
779.00,-0.028
780.00,-0.028
781.00,-0.028
782.00,-0.028
783.00,-0.028
784.00,-0.028
785.00,-0.028
786.00,-0.028
787.00,-0.028
788.00,-0.028
789.00,-0.028
790.00,-0.028
791.00,-0.028
792.00,-0.028
793.00,-0.028
794.00,-0.028
795.00,-0.028
796.00,-0.028
797.00,-0.028
798.00,-0.028
799.00,-0.028
800.00,-0.028
801.00,-0.028
802.00,-0.028
803.00,-0.028
804.00,-0.028
805.00,-0.028
806.00,-0.028
807.00,-0.028
808.00,-0.028
809.00,-0.028
810.00,-0.028
811.00,-0.028
812.00,-0.028
813.00,-0.028
814.00,-0.028
815.00,-0.028
816.00,-0.028
817.00,-0.028
818.00,-0.028
819.00,-0.028
820.00,-0.028
821.00,-0.028
822.00,-0.028
823.00,-0.028
824.00,-0.027
825.00,-0.027
826.00,-0.027
827.00,-0.027
828.00,-0.027
829.00,-0.027
830.00,-0.028
831.00,-0.028
832.00,-0.027
833.00,-0.027
834.00,-0.027
835.00,-0.027
836.00,-0.028
837.00,-0.028
838.00,-0.028
839.00,-0.028
840.00,-0.028
841.00,-0.028
842.00,-0.028
843.00,-0.028
844.00,-0.028
845.00,-0.028
846.00,-0.028
847.00,-0.028
848.00,-0.028
849.00,-0.028
850.00,-0.028
851.00,-0.028
852.00,-0.028
853.00,-0.027
854.00,-0.027
855.00,-0.028
856.00,-0.028
857.00,-0.027
858.00,-0.027
859.00,-0.027
860.00,-0.027
861.00,-0.027
862.00,-0.027
863.00,-0.027
864.00,-0.027
865.00,-0.026
866.00,-0.026
867.00,-0.026
868.00,-0.026
869.00,-0.026
870.00,-0.025
871.00,-0.025
872.00,-0.025
873.00,-0.024
874.00,-0.024
875.00,-0.024
876.00,-0.023
877.00,-0.023
878.00,-0.023
879.00,-0.022
880.00,-0.022
881.00,-0.021
882.00,-0.021
883.00,-0.021
884.00,-0.020
885.00,-0.020
886.00,-0.019
887.00,-0.018
888.00,-0.018
889.00,-0.017
890.00,-0.016
891.00,-0.015
892.00,-0.014
893.00,-0.013
894.00,-0.011
895.00,-0.010
896.00,-0.008
897.00,-0.006
898.00,-0.005
899.00,-0.003
900.00,-0.001
901.00,0.001
902.00,0.002
903.00,0.004
904.00,0.006
905.00,0.008
906.00,0.010
907.00,0.011
908.00,0.012
909.00,0.013
910.00,0.013
911.00,0.013
912.00,0.013
913.00,0.013
914.00,0.012
915.00,0.012
916.00,0.011
917.00,0.010
918.00,0.010
919.00,0.009
920.00,0.008
921.00,0.008
922.00,0.007
923.00,0.006
924.00,0.005
925.00,0.004
926.00,0.002
927.00,0.001
928.00,0.000
929.00,-0.001
930.00,-0.002
931.00,-0.003
932.00,-0.004
933.00,-0.005
934.00,-0.006
935.00,-0.007
936.00,-0.008
937.00,-0.009
938.00,-0.010
939.00,-0.011
940.00,-0.011
941.00,-0.012
942.00,-0.013
943.00,-0.013
944.00,-0.014
945.00,-0.015
946.00,-0.015
947.00,-0.016
948.00,-0.016
949.00,-0.017
950.00,-0.017
951.00,-0.017
952.00,-0.018
953.00,-0.018
954.00,-0.019
955.00,-0.019
956.00,-0.020
957.00,-0.020
958.00,-0.020
959.00,-0.021
960.00,-0.021
961.00,-0.022
962.00,-0.022
963.00,-0.022
964.00,-0.023
965.00,-0.023
966.00,-0.023
967.00,-0.023
968.00,-0.023
969.00,-0.024
970.00,-0.024
971.00,-0.024
972.00,-0.024
973.00,-0.024
974.00,-0.024
975.00,-0.024
976.00,-0.024
977.00,-0.024
978.00,-0.024
979.00,-0.024
980.00,-0.024
981.00,-0.023
982.00,-0.023
983.00,-0.023
984.00,-0.023
985.00,-0.022
986.00,-0.022
987.00,-0.021
988.00,-0.021
989.00,-0.021
990.00,-0.020
991.00,-0.020
992.00,-0.019
993.00,-0.019
994.00,-0.018
995.00,-0.017
996.00,-0.017
997.00,-0.016
998.00,-0.015
999.00,-0.015
1000.00,-0.014
1001.00,-0.012
1002.00,-0.011
1003.00,-0.009
1004.00,-0.007
1005.00,-0.006
1006.00,-0.005
1007.00,-0.004
1008.00,-0.003
1009.00,-0.003
1010.00,-0.002
1011.00,-0.002
1012.00,-0.002
1013.00,-0.001
1014.00,-0.001
1015.00,-0.000
1016.00,-0.000
1017.00,0.000
1018.00,0.000
1019.00,0.000
1020.00,0.000
1021.00,0.000
1022.00,0.000
1023.00,0.000
1024.00,0.000
1025.00,0.000
1026.00,0.000
1027.00,-0.000
1028.00,-0.000
1029.00,-0.000
1030.00,-0.000
1031.00,-0.000
1032.00,-0.001
1033.00,-0.001
1034.00,-0.001
1035.00,-0.001
1036.00,-0.001
1037.00,-0.001
1038.00,-0.001
1039.00,-0.002
1040.00,-0.002
1041.00,-0.002
1042.00,-0.002
1043.00,-0.002
1044.00,-0.003
1045.00,-0.003
1046.00,-0.003
1047.00,-0.004
1048.00,-0.004
1049.00,-0.004
1050.00,-0.005
1051.00,-0.005
1052.00,-0.006
1053.00,-0.006
1054.00,-0.006
1055.00,-0.007
1056.00,-0.007
1057.00,-0.008
1058.00,-0.008
1059.00,-0.008
1060.00,-0.009
1061.00,-0.009
1062.00,-0.009
1063.00,-0.009
1064.00,-0.010
1065.00,-0.010
1066.00,-0.010
1067.00,-0.010
1068.00,-0.011
1069.00,-0.011
1070.00,-0.012
1071.00,-0.012
1072.00,-0.012
1073.00,-0.013
1074.00,-0.013
1075.00,-0.014
1076.00,-0.014
1077.00,-0.015
1078.00,-0.015
1079.00,-0.015
1080.00,-0.016
1081.00,-0.016
1082.00,-0.016
1083.00,-0.016
1084.00,-0.017
1085.00,-0.017
1086.00,-0.017
1087.00,-0.017
1088.00,-0.018
1089.00,-0.018
1090.00,-0.018
1091.00,-0.018
1092.00,-0.018
1093.00,-0.018
1094.00,-0.018
1095.00,-0.018
1096.00,-0.018
1097.00,-0.019
1098.00,-0.018
1099.00,-0.019
1100.00,-0.018
